 *                                      
 * hydrostatic:  btemp=  3.000E+07 bden=  1.500E+02
 *          time                temp          den           ener          sdot          sneut         s-snu         ye            1-sum
      1  0.000000000000E+00  3.000000E+07  1.500000E+02  6.417711E+15  3.563383E+01  1.002125E+01  2.561258E+01  8.750000E-01  0.000000E+00
      2  1.000000000000E-16  3.000000E+07  1.500000E+02  6.417711E+15  3.563383E+01  1.002125E+01  2.561258E+01  8.750000E-01  0.000000E+00
      3  1.100000000000E-15  3.000000E+07  1.500000E+02  6.417711E+15  3.563383E+01  1.002125E+01  2.561258E+01  8.750000E-01  0.000000E+00
      4  1.110000000000E-14  3.000000E+07  1.500000E+02  6.417711E+15  3.563383E+01  1.002125E+01  2.561258E+01  8.750000E-01  0.000000E+00
      5  1.111000000000E-13  3.000000E+07  1.500000E+02  6.417711E+15  3.563383E+01  1.002125E+01  2.561258E+01  8.750000E-01  0.000000E+00
      6  1.111100000000E-12  3.000000E+07  1.500000E+02  6.417711E+15  3.563383E+01  1.002125E+01  2.561258E+01  8.750000E-01  0.000000E+00
      7  1.111110000000E-11  3.000000E+07  1.500000E+02  6.417711E+15  3.563383E+01  1.002125E+01  2.561258E+01  8.750000E-01  0.000000E+00
      8  1.111111000000E-10  3.000000E+07  1.500000E+02  6.417711E+15  3.563383E+01  1.002125E+01  2.561258E+01  8.750000E-01  0.000000E+00
      9  1.111111100000E-09  3.000000E+07  1.500000E+02  6.417711E+15  3.563384E+01  1.002125E+01  2.561259E+01  8.750000E-01  0.000000E+00
     10  1.111111110000E-08  3.000000E+07  1.500000E+02  6.417711E+15  3.563389E+01  1.002125E+01  2.561264E+01  8.750000E-01  0.000000E+00
     11  1.111111111000E-07  3.000000E+07  1.500000E+02  6.417711E+15  3.563440E+01  1.002125E+01  2.561315E+01  8.750000E-01  0.000000E+00
     12  1.111111111100E-06  3.000000E+07  1.500000E+02  6.417711E+15  3.563949E+01  1.002125E+01  2.561824E+01  8.750000E-01  0.000000E+00
     13  1.111111111110E-05  3.000000E+07  1.500000E+02  6.417711E+15  3.569038E+01  1.002125E+01  2.566913E+01  8.750000E-01  0.000000E+00
     14  1.111111111111E-04  3.000000E+07  1.500000E+02  6.417711E+15  3.619866E+01  1.002125E+01  2.617740E+01  8.750000E-01  0.000000E+00
     15  1.111111111111E-03  3.000000E+07  1.500000E+02  6.417711E+15  4.121424E+01  1.002125E+01  3.119298E+01  8.750000E-01  0.000000E+00
     16  1.111111111111E-02  3.000000E+07  1.500000E+02  6.417711E+15  8.522146E+01  1.002125E+01  7.520020E+01  8.750000E-01  0.000000E+00
     17  1.111111111111E-01  3.000000E+07  1.500000E+02  6.417711E+15  2.315650E+02  1.002125E+01  2.215437E+02  8.750000E-01  0.000000E+00
     18  4.727056991921E-01  3.000000E+07  1.500000E+02  6.417711E+15  2.458048E+02  1.002125E+01  2.357836E+02  8.750000E-01  0.000000E+00
     19  8.342678517191E-01  3.000000E+07  1.500000E+02  6.417711E+15  2.458184E+02  1.002125E+01  2.357971E+02  8.750000E-01  0.000000E+00
     20  4.449889376989E+00  3.000000E+07  1.500000E+02  6.417711E+15  2.458184E+02  1.002125E+01  2.357971E+02  8.750000E-01  1.110223E-16
     21  4.060610462969E+01  3.000000E+07  1.500000E+02  6.417711E+15  2.458184E+02  1.002125E+01  2.357971E+02  8.750000E-01  0.000000E+00
     22  4.021682571567E+02  3.000000E+07  1.500000E+02  6.417711E+15  2.458184E+02  1.002125E+01  2.357972E+02  8.750000E-01  1.110223E-16
     23  4.017789782426E+03  3.000000E+07  1.500000E+02  6.417711E+15  2.458186E+02  1.002126E+01  2.357973E+02  8.750000E-01 -2.220446E-16
     24  4.017400503512E+04  3.000000E+07  1.500000E+02  6.417711E+15  2.458208E+02  1.002154E+01  2.357992E+02  8.750000E-01 -2.220446E-16
     25  2.354457003259E+05  3.000000E+07  1.500000E+02  6.417711E+15  2.458492E+02  1.002990E+01  2.358193E+02  8.750000E-01 -1.110223E-15
     26  9.200594537748E+05  3.000000E+07  1.500000E+02  6.417711E+15  2.460807E+02  1.011315E+01  2.359675E+02  8.750000E-01 -1.554312E-15
     27  2.645191552173E+06  3.000000E+07  1.500000E+02  6.417711E+15  2.469064E+02  1.042231E+01  2.364841E+02  8.750000E-01 -1.998401E-15
     28  6.818004173367E+06  3.000000E+07  1.500000E+02  6.417712E+15  2.489954E+02  1.120773E+01  2.377876E+02  8.750000E-01 -2.664535E-15
     29  8.968815636131E+06  3.000000E+07  1.500000E+02  6.417713E+15  2.500707E+02  1.161203E+01  2.384586E+02  8.750000E-01 -2.442491E-15
     30  3.047693026378E+07  3.000000E+07  1.500000E+02  6.417718E+15  2.607404E+02  1.562249E+01  2.451180E+02  8.750000E-01 -2.220446E-15
     31  1.625592490625E+08  3.000000E+07  1.500000E+02  6.417753E+15  3.230462E+02  3.899704E+01  2.840492E+02  8.750000E-01 -2.664535E-15
     32  9.612901138927E+08  3.000000E+07  1.500000E+02  6.418056E+15  6.011559E+02  1.424248E+02  4.587311E+02  8.750000E-01 -3.108624E-15
     33  3.714251833191E+09  3.000000E+07  1.500000E+02  6.419675E+15  9.118516E+02  2.562745E+02  6.555772E+02  8.749998E-01 -3.552714E-15
     34  1.097212865990E+10  3.000000E+07  1.500000E+02  6.424606E+15  9.574788E+02  2.728480E+02  6.846308E+02  8.749992E-01 -4.218847E-15
     35  1.753408849549E+10  3.000000E+07  1.500000E+02  6.429099E+15  9.576658E+02  2.729161E+02  6.847497E+02  8.749987E-01 -5.107026E-15
     36  3.626777082596E+10  3.000000E+07  1.500000E+02  6.441927E+15  9.576604E+02  2.729148E+02  6.847456E+02  8.749973E-01 -5.107026E-15
     37  6.764501261378E+10  3.000000E+07  1.500000E+02  6.463412E+15  9.576492E+02  2.729119E+02  6.847373E+02  8.749948E-01 -5.107026E-15
     38  3.814174304919E+11  3.000000E+07  1.500000E+02  6.678251E+15  9.575371E+02  2.728827E+02  6.846545E+02  8.749706E-01 -4.662937E-15
     39  3.519141609273E+12  3.000000E+07  1.500000E+02  8.825209E+15  9.564169E+02  2.725904E+02  6.838265E+02  8.747285E-01 -5.107026E-15
     40  3.489638339709E+13  3.000000E+07  1.500000E+02  3.015259E+16  9.452798E+02  2.696703E+02  6.756095E+02  8.723227E-01 -4.662937E-15
     41  2.097184358468E+14  3.000000E+07  1.500000E+02  1.443933E+17  8.855707E+02  2.536497E+02  6.319210E+02  8.594227E-01 -4.218847E-15
     42  4.927579463190E+14  3.000000E+07  1.500000E+02  3.140790E+17  7.979331E+02  2.293436E+02  5.685895E+02  8.402327E-01 -3.996803E-15
     43  7.287434221717E+14  3.000000E+07  1.500000E+02  4.426808E+17  7.332633E+02  2.110190E+02  5.222444E+02  8.256757E-01 -3.552714E-15
     44  1.074266499419E+15  3.000000E+07  1.500000E+02  6.126979E+17  6.509420E+02  1.873919E+02  4.635501E+02  8.064244E-01 -2.220446E-15
     45  1.387782968673E+15  3.000000E+07  1.500000E+02  7.507461E+17  5.871692E+02  1.689353E+02  4.182339E+02  7.907941E-01 -2.220446E-15
     46  1.875994988536E+15  3.000000E+07  1.500000E+02  9.401079E+17  5.045993E+02  1.449153E+02  3.596840E+02  7.693640E-01 -1.776357E-15
     47  2.318913892775E+15  3.000000E+07  1.500000E+02  1.089554E+18  4.436479E+02  1.271326E+02  3.165154E+02  7.524650E-01 -1.998401E-15
     48  2.748372270487E+15  3.000000E+07  1.500000E+02  1.217781E+18  3.944086E+02  1.127521E+02  2.816565E+02  7.379788E-01 -1.332268E-15
     49  3.227430757326E+15  3.000000E+07  1.500000E+02  1.344688E+18  3.485037E+02  9.934402E+01  2.491597E+02  7.236569E-01 -1.998401E-15
     50  3.706754246833E+15  3.000000E+07  1.500000E+02  1.457412E+18  3.101120E+02  8.813620E+01  2.219758E+02  7.109504E-01 -1.776357E-15
     51  4.247256647045E+15  3.000000E+07  1.500000E+02  1.570252E+18  2.739411E+02  7.758699E+01  1.963542E+02  6.982470E-01 -1.110223E-15
     52  4.792361484186E+15  3.000000E+07  1.500000E+02  1.671233E+18  2.434970E+02  6.871995E+01  1.747771E+02  6.868945E-01 -1.776357E-15
     53  5.407487867410E+15  3.000000E+07  1.500000E+02  1.772300E+18  2.148518E+02  6.039066E+01  1.544612E+02  6.755493E-01 -1.776357E-15
     54  6.029734007737E+15  3.000000E+07  1.500000E+02  1.862926E+18  1.907199E+02  5.338736E+01  1.373325E+02  6.653924E-01 -2.664535E-15
     55  6.732081172157E+15  3.000000E+07  1.500000E+02  1.953549E+18  1.680583E+02  4.682519E+01  1.212331E+02  6.552530E-01 -1.998401E-15
     56  7.444302081796E+15  3.000000E+07  1.500000E+02  2.034913E+18  1.489633E+02  4.130939E+01  1.076539E+02  6.461661E-01 -2.886580E-15
     57  8.248377476465E+15  3.000000E+07  1.500000E+02  2.116191E+18  1.310694E+02  3.615444E+01  9.491493E+01  6.371063E-01 -2.442491E-15
     58  9.065866987571E+15  3.000000E+07  1.500000E+02  2.189256E+18  1.159890E+02  3.182286E+01  8.416617E+01  6.289785E-01 -1.332268E-15
     59  9.989006574435E+15  3.000000E+07  1.500000E+02  2.262159E+18  1.018892E+02  2.778586E+01  7.410335E+01  6.208862E-01 -1.554312E-15
     60  1.093025120317E+16  3.000000E+07  1.500000E+02  2.327787E+18  9.000343E+01  2.439460E+01  6.560882E+01  6.136180E-01 -1.998401E-15
     61  1.199343724881E+16  3.000000E+07  1.500000E+02  2.393186E+18  7.891801E+01  2.124356E+01  5.767445E+01  6.063927E-01 -2.220446E-15
     62  1.308100956294E+16  3.000000E+07  1.500000E+02  2.452153E+18  6.957019E+01  1.859722E+01  5.097298E+01  5.998945E-01 -1.998401E-15
     63  1.430988975180E+16  3.000000E+07  1.500000E+02  2.510829E+18  6.087586E+01  1.614662E+01  4.472924E+01  5.934458E-01 -2.220446E-15
     64  1.557163481724E+16  3.000000E+07  1.500000E+02  2.563831E+18  5.354125E+01  1.408904E+01  3.945220E+01  5.876372E-01 -1.776357E-15
     65  1.699788187610E+16  3.000000E+07  1.500000E+02  2.616486E+18  4.674052E+01  1.219093E+01  3.454959E+01  5.818839E-01 -1.998401E-15
     66  1.846853491332E+16  3.000000E+07  1.500000E+02  2.664148E+18  4.100039E+01  1.059763E+01  3.040275E+01  5.766926E-01 -2.442491E-15
     67  2.013170444718E+16  3.000000E+07  1.500000E+02  2.711411E+18  3.569684E+01  9.134229E+00  2.656261E+01  5.715619E-01 -1.776357E-15
     68  2.185513927490E+16  3.000000E+07  1.500000E+02  2.754295E+18  3.121755E+01  7.906178E+00  2.331137E+01  5.669227E-01 -1.554312E-15
     69  2.380525661967E+16  3.000000E+07  1.500000E+02  2.796728E+18  2.709569E+01  6.783915E+00  2.031177E+01  5.623493E-01 -1.110223E-15
     70  2.709821897363E+16  3.000000E+07  1.500000E+02  2.856875E+18  2.177832E+01  5.350065E+00  1.642825E+01  5.558990E-01 -4.440892E-16
     71  2.974610349376E+16  3.000000E+07  1.500000E+02  2.897129E+18  1.856112E+01  4.492261E+00  1.406885E+01  5.516061E-01 -4.440892E-16
     72  3.236112631608E+16  3.000000E+07  1.500000E+02  2.931402E+18  1.603596E+01  3.825545E+00  1.221041E+01  5.479682E-01 -1.110223E-15
     73  3.530246464589E+16  3.000000E+07  1.500000E+02  2.964758E+18  1.376598E+01  3.232298E+00  1.053368E+01  5.444443E-01 -6.661338E-16
     74  4.030112066678E+16  3.000000E+07  1.500000E+02  3.011748E+18  1.087941E+01  2.488522E+00  8.390885E+00  5.395115E-01 -8.881784E-16
     75  4.434115707951E+16  3.000000E+07  1.500000E+02  3.042948E+18  9.161755E+00  2.053203E+00  7.108552E+00  5.362591E-01 -1.110223E-15
     76  4.843851616873E+16  3.000000E+07  1.500000E+02  3.069905E+18  7.804131E+00  1.714080E+00  6.090051E+00  5.334653E-01 -8.881784E-16
     77  5.305715382420E+16  3.000000E+07  1.500000E+02  3.095863E+18  6.606556E+00  1.419460E+00  5.187096E+00  5.307911E-01 -6.661338E-16
     78  6.108743834276E+16  3.000000E+07  1.500000E+02  3.132610E+18  5.092900E+00  1.054882E+00  4.038018E+00  5.270351E-01  0.000000E+00
     79  6.764321866843E+16  3.000000E+07  1.500000E+02  3.156771E+18  4.212097E+00  8.479488E-01  3.364148E+00  5.245867E-01 -6.661338E-16
     80  7.887546243467E+16  3.000000E+07  1.500000E+02  3.189662E+18  3.156450E+00  6.068159E-01  2.549634E+00  5.212841E-01 -1.110223E-15
     81  8.795988667435E+16  3.000000E+07  1.500000E+02  3.210638E+18  2.568107E+00  4.767298E-01  2.091378E+00  5.191985E-01 -1.332268E-15
     82  1.039681100638E+17  3.000000E+07  1.500000E+02  3.239363E+18  1.867462E+00  3.273608E-01  1.540101E+00  5.163717E-01 -1.332268E-15
     83  1.170686490791E+17  3.000000E+07  1.500000E+02  3.257449E+18  1.487382E+00  2.497050E-01  1.237677E+00  5.146111E-01 -1.332268E-15
     84  1.412566065394E+17  3.000000E+07  1.500000E+02  3.282597E+18  1.035390E+00  1.616835E-01  8.737062E-01  5.121906E-01 -1.332268E-15
     85  1.615470090417E+17  3.000000E+07  1.500000E+02  3.298237E+18  7.981370E-01  1.180311E-01  6.801059E-01  5.107033E-01 -1.332268E-15
     86  1.876385841652E+17  3.000000E+07  1.500000E+02  3.313655E+18  5.963338E-01  8.280534E-02  5.135285E-01  5.092518E-01 -1.110223E-15
     87  2.180644740227E+17  3.000000E+07  1.500000E+02  3.327213E+18  4.445942E-01  5.784246E-02  3.867518E-01  5.079885E-01 -1.554312E-15
     88  2.803811251298E+17  3.000000E+07  1.500000E+02  3.346192E+18  2.714998E-01  3.158860E-02  2.399112E-01  5.062427E-01 -1.776357E-15
     89  3.274858927311E+17  3.000000E+07  1.500000E+02  3.355933E+18  1.999718E-01  2.169940E-02  1.782724E-01  5.053577E-01 -1.998401E-15
     90  4.327961227589E+17  3.000000E+07  1.500000E+02  3.370288E+18  1.152987E-01  1.105394E-02  1.042448E-01  5.040682E-01 -1.998401E-15
